,Date,Adj Close,daily_return
0,2017-01-03,67.2104263305664,
1,2017-01-04,68.32415771484375,0.016570812671230284
2,2017-01-05,67.62462615966797,-0.01023842193701574
3,2017-01-06,67.6522445678711,0.00040840755463711353
4,2017-01-09,67.81793212890625,0.002449106634871967
5,2017-01-10,67.0263442993164,-0.011672249576781812
6,2017-01-11,67.22884368896484,0.0030211910222068816
7,2017-01-12,67.49578094482422,0.003970576336168596
8,2017-01-13,67.6522445678711,0.002318124493955853
9,2017-01-17,67.50495147705078,-0.0021772092228594664
10,2017-01-18,67.63385009765625,0.0019094691246357431
11,2017-01-19,66.94351196289062,-0.010206991525232523
12,2017-01-20,65.94021606445312,-0.014987201433257158
13,2017-01-23,66.68577575683594,0.011306600688934187
14,2017-01-24,67.68904876708984,0.015044782772150045
15,2017-01-25,67.58780670166016,-0.0014956934286083357
16,2017-01-26,67.48657989501953,-0.001497708116013463
17,2017-01-27,67.5970230102539,0.0016365196666681125
18,2017-01-30,67.24573516845703,-0.005196794565103691
19,2017-01-31,67.45836639404297,0.003162003137496816
20,2017-02-01,68.3550796508789,0.013292839787995891
21,2017-02-02,67.7911605834961,-0.008249848734914966
22,2017-02-03,68.2071533203125,0.00613638611930889
23,2017-02-06,67.80965423583984,-0.00582782105867885
24,2017-02-07,67.23646545410156,-0.008452908191284192
25,2017-02-08,67.99453735351562,0.011274713718131935
26,2017-02-09,68.01303100585938,0.00027198732521105384
27,2017-02-10,69.140869140625,0.016582677144155733
28,2017-02-13,68.80809020996094,-0.004813056804177984
29,2017-02-14,68.25337982177734,-0.008061703013278687
30,2017-02-15,67.67095947265625,-0.008533208914223822
31,2017-02-16,68.59545135498047,0.013661574913797159
32,2017-02-17,68.31809997558594,-0.004043291120853554
33,2017-02-21,68.95597839355469,0.009336887562691354
34,2017-02-22,68.65092468261719,-0.004423890691485188
35,2017-02-23,68.521484375,-0.0018854852751890583
36,2017-02-24,68.74336242675781,0.0032380800530171783
37,2017-02-27,68.85428619384766,0.0016135923989466505
38,2017-02-28,68.88201141357422,0.0004026651245574442
39,2017-03-01,70.31494903564453,0.020802784248950212
40,2017-03-02,70.0838394165039,-0.0032867778802408987
41,2017-03-03,70.29644775390625,0.003033628567904678
42,2017-03-06,69.93592071533203,-0.005128666527167258
43,2017-03-07,69.7695083618164,-0.002379497571684097
44,2017-03-08,70.20403289794922,0.006228000545444923
45,2017-03-09,70.12080383300781,-0.001185531108481963
46,2017-03-10,70.98983764648438,0.012393380651285257
47,2017-03-13,70.95282745361328,-0.0005213449431367145
48,2017-03-14,70.74943542480469,-0.0028665810244358214
49,2017-03-15,71.40581512451172,0.009277525619333815
50,2017-03-16,71.16545104980469,-0.003366169467961422
51,2017-03-17,71.25789642333984,0.0012990204118914495
52,2017-03-20,71.96049499511719,0.009859939838853027
53,2017-03-21,70.9713134765625,-0.013746174461721106
54,2017-03-22,71.0452651977539,0.0010419945407356135
55,2017-03-23,71.33187103271484,0.004034129989706869
56,2017-03-24,70.83264923095703,-0.006998579940919458
57,2017-03-27,70.83264923095703,0.0
58,2017-03-28,71.24866485595703,0.005873218487756127
59,2017-03-29,71.22091674804688,-0.0003894544264970712
60,2017-03-30,71.05452728271484,-0.0023362443637261476
61,2017-03-31,71.17469787597656,0.001691244708216466
62,2017-04-03,70.67549133300781,-0.007013820330345921
63,2017-04-04,70.9435806274414,0.0037932427405480418
64,2017-04-05,70.33343505859375,-0.008600433801781437
65,2017-04-06,70.74943542480469,0.005914688595322737
66,2017-04-07,70.40739440917969,-0.004834540566596268
67,2017-04-10,71.08224487304688,0.00958493734259247
68,2017-04-11,71.10997772216797,0.0003901515655651
69,2017-04-12,70.47211456298828,-0.008970093643846488
70,2017-04-13,70.07457733154297,-0.005641057231083768
71,2017-04-17,71.43356323242188,0.019393422730887844
72,2017-04-18,71.71089172363281,0.003882327559505905
73,2017-04-19,71.69239807128906,-0.0002578918194885427
74,2017-04-20,71.9419937133789,0.003481479889146044
75,2017-04-21,72.09917449951172,0.002184826664090478
76,2017-04-24,72.38575744628906,0.00397484366175771
77,2017-04-25,72.78329467773438,0.0054919261118500096
78,2017-04-26,73.3471908569336,0.007747604470174085
79,2017-04-27,72.83873748779297,-0.006932145092405584
80,2017-04-28,74.23468780517578,0.019164943895640052
81,2017-05-01,74.00265502929688,-0.0031256651403702707
82,2017-05-02,74.43888092041016,0.0058947329787097935
83,2017-05-03,74.67091369628906,0.0031170911358406883
84,2017-05-04,75.54339599609375,0.011684366195830354
85,2017-05-05,76.02605438232422,0.006389153940808079
86,2017-05-08,76.58293151855469,0.007324819639199065
87,2017-05-09,76.55508422851562,-0.00036362267005041193
88,2017-05-10,76.9170913696289,0.0047287145558183585
89,2017-05-11,76.60150909423828,-0.004102888834863538
90,2017-05-12,76.5086898803711,-0.001211715212463993
91,2017-05-15,76.69432067871094,0.002426270775647721
92,2017-05-16,76.84283447265625,0.001936437960868842
93,2017-05-17,76.36946868896484,-0.006160181192429226
94,2017-05-18,76.23954010009766,-0.0017013158674228368
95,2017-05-19,76.44371032714844,0.0026780096887091265
96,2017-05-22,76.88924407958984,0.005828259127333091
97,2017-05-23,77.21409606933594,0.004224934106646039
98,2017-05-24,77.39972686767578,0.0024041050506264927
99,2017-05-25,78.10514068603516,0.00911390578374216
100,2017-05-26,78.30934143066406,0.002614434118360265
101,2017-05-30,78.46712493896484,0.0020148746678003704
102,2017-05-31,78.90336608886719,0.00555954038384443
103,2017-06-01,80.06358337402344,0.01470428123243206
104,2017-06-02,80.1285400390625,0.0008113134873768413
105,2017-06-05,79.68301391601562,-0.005560142775965726
106,2017-06-06,79.33961486816406,-0.0043095639958284915
107,2017-06-07,79.53451538085938,0.002456534645639108
108,2017-06-08,79.12611389160156,-0.005134896306366321
109,2017-06-09,79.49737548828125,0.004692023636953646
110,2017-06-12,79.30248260498047,-0.0024515637416170355
111,2017-06-13,79.98931884765625,0.008660967729056335
112,2017-06-14,80.05426788330078,0.0008119713554284314
113,2017-06-15,80.03572845458984,-0.0002315857630221796
114,2017-06-16,79.77582550048828,-0.0032473366472702825
115,2017-06-19,80.51837158203125,0.009307908465809867
116,2017-06-20,80.64830780029297,0.0016137462259695479
117,2017-06-21,80.7503890991211,0.0012657587197106857
118,2017-06-22,80.58334350585938,-0.002068666109542483
119,2017-06-23,80.56478118896484,-0.00023034930156728972
120,2017-06-26,80.88035583496094,0.003917029765846625
121,2017-06-27,80.16566467285156,-0.008836399824547314
122,2017-06-28,80.68544006347656,0.006483765746172709
123,2017-06-29,80.27703857421875,-0.005061650391155026
124,2017-06-30,80.62046813964844,0.004278054740549209
125,2017-07-03,80.82464599609375,0.0025325808836986763
126,2017-07-05,81.01956939697266,0.00241168270490566
127,2017-07-06,81.03813171386719,0.00022910905393214165
128,2017-07-07,81.7621078491211,0.008933771299295845
129,2017-07-10,81.95703125,0.002384031013958232
130,2017-07-11,81.83634185791016,-0.001472593507220843
131,2017-07-12,82.58818817138672,0.009187193567155916
132,2017-07-13,82.2633056640625,-0.003933764797576456
133,2017-07-14,83.005859375,0.009026548409929669
134,2017-07-17,83.34001159667969,0.004025646191675003
135,2017-07-18,83.2935791015625,-0.0005571452922504827
136,2017-07-19,83.61844635009766,0.003900267608131447
137,2017-07-20,83.2564468383789,-0.004329182465351189
138,2017-07-21,83.08010864257812,-0.002118012508305789
139,2017-07-24,83.33159637451172,0.003027051072062692
140,2017-07-25,82.6143569946289,-0.00860705195973166
141,2017-07-26,82.02751159667969,-0.007103431162544416
142,2017-07-27,81.97161102294922,-0.0006814856703849514
143,2017-07-28,76.67141723632812,-0.0646588949573923
144,2017-07-31,75.38594818115234,-0.016765948791757856
145,2017-08-01,76.85770416259766,0.01952294846658531
146,2017-08-02,76.61553955078125,-0.0031508176630424822
147,2017-08-03,76.61553955078125,0.0
148,2017-08-04,76.71797180175781,0.00133696442754494
149,2017-08-07,77.07196807861328,0.004614254894149239
150,2017-08-08,77.07196807861328,0.0
151,2017-08-09,76.82976531982422,-0.0031425531853814803
152,2017-08-10,75.92621612548828,-0.011760405496159865
153,2017-08-11,76.51307678222656,0.007729354716799586
154,2017-08-14,77.23031616210938,0.009374075779545965
155,2017-08-15,77.08128356933594,-0.001929716207047627
156,2017-08-16,77.82646942138672,0.009667532993018702
157,2017-08-17,76.50373077392578,-0.0169959996553235
158,2017-08-18,76.52239227294922,0.0002439292676925664
159,2017-08-21,75.90757751464844,-0.008034442468915381
160,2017-08-22,76.49441528320312,0.007730951082471904
161,2017-08-23,76.01935577392578,-0.006210381601304382
162,2017-08-24,75.52568817138672,-0.006493972456267372
163,2017-08-25,76.74594116210938,0.01615679406923909
164,2017-08-28,76.25225067138672,-0.006432789581403919
165,2017-08-29,76.38263702392578,0.0017099344791928761
166,2017-08-30,77.28620910644531,0.01182954815027526
167,2017-08-31,77.88237762451172,0.007713776169889552
168,2017-09-01,78.13385772705078,0.0032289731028949387
169,2017-09-05,77.54704284667969,-0.007510378950199126
170,2017-09-06,77.17443084716797,-0.0048049801234641976
171,2017-09-07,77.88237762451172,0.009173333312243459
172,2017-09-08,78.07798767089844,0.0025116085609224736
173,2017-09-11,79.28893280029297,0.015509430577267391
174,2017-09-12,79.36345672607422,0.0009399032519323836
175,2017-09-13,78.71138763427734,-0.008216238539703657
176,2017-09-14,79.05604553222656,0.004378755200589612
177,2017-09-15,78.90699768066406,-0.0018853441322427278
178,2017-09-18,79.5870132446289,0.008617937368709194
179,2017-09-19,79.69878387451172,0.0014043827670635611
180,2017-09-20,80.22044372558594,0.006545392861898591
181,2017-09-21,80.24834442138672,0.0003478003175378941
182,2017-09-22,79.84781646728516,-0.004991105511141458
183,2017-09-25,80.81656646728516,0.012132454497323808
184,2017-09-26,80.80725860595703,-0.00011517268964766902
185,2017-09-27,80.61166381835938,-0.0024205101246095317
186,2017-09-28,81.11463165283203,0.006239392795637899
187,2017-09-29,80.39739990234375,-0.008842199438912735
188,2017-10-02,81.85985565185547,0.01819033639505907
189,2017-10-03,82.37215423583984,0.006258239522961562
190,2017-10-04,82.10203552246094,-0.003279247894932169
191,2017-10-05,82.10203552246094,0.0
192,2017-10-06,82.51190185546875,0.0049921579946172745
193,2017-10-09,82.4001235961914,-0.0013546925566343404
194,2017-10-10,82.409423828125,0.00011286672310317769
195,2017-10-11,82.30696105957031,-0.0012433380042601305
196,2017-10-12,82.42807006835938,0.001471430936460072
197,2017-10-13,82.75408172607422,0.003955104825873912
198,2017-10-16,82.84723663330078,0.0011256835346795668
199,2017-10-17,82.8844985961914,0.00044976711843203176
200,2017-10-18,82.5305404663086,-0.0042704985356463165
201,2017-10-19,82.56777954101562,0.0004512156893270447
202,2017-10-20,83.08939361572266,0.006317404653566117
203,2017-10-23,82.93107604980469,-0.0019053883898848545
204,2017-10-24,83.01490020751953,0.001010768962704578
205,2017-10-25,82.42807006835938,-0.007068973614293372
206,2017-10-26,82.84723663330078,0.005085240556933934
207,2017-10-27,81.90642547607422,-0.011355975111044359
208,2017-10-30,80.5371322631836,-0.016717775253061284
209,2017-10-31,81.40664672851562,0.010796441851077976
210,2017-11-01,81.72453308105469,0.0039049188894757503
211,2017-11-02,80.96720886230469,-0.009266791625458182
212,2017-11-03,81.28509521484375,0.0039261122744105315
213,2017-11-06,80.26598358154297,-0.012537496949559745
214,2017-11-07,80.1444320678711,-0.0015143589880560748
215,2017-11-08,80.1537857055664,0.00011670976328570504
216,2017-11-09,79.24689483642578,-0.011314385978872687
217,2017-11-10,79.38713073730469,0.0017696075179773896
218,2017-11-13,80.02288818359375,0.008008318733584208
219,2017-11-14,80.0416030883789,0.0002338693992425256
220,2017-11-15,79.92005920410156,-0.0015185088702326377
221,2017-11-16,80.50908660888672,0.007370207312795918
222,2017-11-17,80.07897186279297,-0.0053424372851631485
223,2017-11-20,79.91070556640625,-0.0021012544551024526
224,2017-11-21,80.9111099243164,0.012519027967770935
225,2017-11-22,80.26598358154297,-0.00797327268624648
226,2017-11-24,80.63996124267578,0.004659229781354135
227,2017-11-27,81.09810638427734,0.005681366093701845
228,2017-11-28,81.25702667236328,0.0019596054109192185
229,2017-11-29,81.86477661132812,0.0074793524185343685
230,2017-11-30,82.65947723388672,0.009707479278073583
231,2017-12-01,81.90217590332031,-0.009161699975716142
232,2017-12-04,82.33221435546875,0.005250635253647884
233,2017-12-05,83.21111297607422,0.010675027114062985
234,2017-12-06,82.43508911132812,-0.009325964249140895
235,2017-12-07,82.63143157958984,0.002381782689608869
236,2017-12-08,82.18266296386719,-0.005430967455651636
237,2017-12-11,81.60296630859375,-0.007053758473710037
238,2017-12-12,80.80825805664062,-0.009738717694989352
239,2017-12-13,81.05135345458984,0.003008298951065358
240,2017-12-14,80.7521743774414,-0.0036912286395816007
241,2017-12-15,81.32249450683594,0.007062597803606074
242,2017-12-18,80.93914794921875,-0.004713905542887198
243,2017-12-19,80.94850158691406,0.00011556382705157908
244,2017-12-20,80.71476745605469,-0.002887442340219426
245,2017-12-21,80.18184661865234,-0.00660251964044245
246,2017-12-22,80.31273651123047,0.0016324130473153176
247,2017-12-26,79.8359146118164,-0.0059370645320668824
248,2017-12-27,80.05096435546875,0.0026936466463491904
249,2017-12-28,81.10743713378906,0.01319750220158511
250,2017-12-29,80.66798400878906,-0.005418160658622551
251,2018-01-02,81.35052490234375,0.008461112570760765
252,2018-01-03,81.51882934570312,0.002068879623842834
253,2018-01-04,80.41558074951172,-0.013533665841946485
254,2018-01-05,81.25702667236328,0.010463717540915463
255,2018-01-08,81.5281753540039,0.003336925958833392
256,2018-01-09,80.77086639404297,-0.009288923205660105
257,2018-01-10,80.09770202636719,-0.00833424720730036
258,2018-01-11,80.63996124267578,0.006769972203822805
259,2018-01-12,80.9298095703125,0.003594351028573195
260,2018-01-16,80.63062286376953,-0.003696866557965084
261,2018-01-17,81.19160461425781,0.006957427966742813
262,2018-01-18,81.5655746459961,0.004606018485716845
263,2018-01-19,82.8464584350586,0.01570373033748229
264,2018-01-22,81.77127075195312,-0.012978076593923249
265,2018-01-23,81.90217590332031,0.001600869720665976
266,2018-01-24,82.46312713623047,0.006849039439102533
267,2018-01-25,83.61312866210938,0.013945645354669578
268,2018-01-26,83.34199523925781,-0.003242713521069751
269,2018-01-29,82.02368927001953,-0.015818027459670203
270,2018-01-30,82.28646850585938,0.0032036992992936497
271,2018-01-31,82.03308868408203,-0.0030792404435159293
272,2018-02-01,81.48883819580078,-0.006634523909945789
273,2018-02-02,80.51290893554688,-0.011976232351097571
274,2018-02-05,78.2420425415039,-0.028204997485072436
275,2018-02-06,78.62676239013672,0.004917047614506398
276,2018-02-07,78.68307495117188,0.0007162009387560175
277,2018-02-08,76.36527252197266,-0.029457445970910157
278,2018-02-09,77.09721374511719,0.009584739227296302
279,2018-02-12,77.51010131835938,0.00535541497786407
280,2018-02-13,84.19134521484375,0.08619836360479405
281,2018-02-14,85.07345581054688,0.010477449831121088
282,2018-02-15,85.55200958251953,0.005625183171568349
283,2018-02-16,86.17134094238281,0.007239238013058147
284,2018-02-20,85.44878387451172,-0.008385120388856637
285,2018-02-21,84.604248046875,-0.009883532442977572
286,2018-02-22,85.02652740478516,0.00499123114570077
287,2018-02-23,85.38310241699219,0.004193691346578099
288,2018-02-26,85.18604278564453,-0.0023079464878806855
289,2018-02-27,83.98490142822266,-0.01410021311172227
290,2018-02-28,83.90985107421875,-0.0008936172184240698
291,2018-03-01,83.51573944091797,-0.004696845820310047
292,2018-03-02,84.15382385253906,0.007640289314237547
293,2018-03-05,84.8294448852539,0.008028405624190382
294,2018-03-06,85.17664337158203,0.004092900605418004
295,2018-03-07,84.58547973632812,-0.0069404429648038946
296,2018-03-08,84.40717315673828,-0.002108004590689383
297,2018-03-09,85.27049255371094,0.01022803352707391
298,2018-03-12,85.18604278564453,-0.0009903750469508754
299,2018-03-13,84.92328643798828,-0.003084499984550626
300,2018-03-14,84.5197982788086,-0.004751207543932212
301,2018-03-15,84.71685791015625,0.0023315203699092457
302,2018-03-16,84.59487915039062,-0.0014398404612100402
303,2018-03-19,84.41657257080078,-0.0021077703683796134
304,2018-03-20,84.24766540527344,-0.0020008768466129867
305,2018-03-21,84.06937408447266,-0.002116276100270653
306,2018-03-22,82.53981018066406,-0.0181940679405046
307,2018-03-23,81.42314147949219,-0.013528849881380811
308,2018-03-26,82.77440643310547,0.016595588539821016
309,2018-03-27,82.65242767333984,-0.0014736289273690195
310,2018-03-28,82.9151840209961,0.0031790517841134847
311,2018-03-29,84.2945785522461,0.016636211419378988
312,2018-04-02,82.51167297363281,-0.021150892610587446
313,2018-04-03,84.04122161865234,0.018537360713899442
314,2018-04-04,84.18197631835938,0.0016748292920554242
315,2018-04-05,84.8294448852539,0.0076912968216134026
316,2018-04-06,83.04654693603516,-0.021017442134985354
317,2018-04-09,84.36027526855469,0.015819180700329394
318,2018-04-10,87.00650024414062,0.03136814059890014
319,2018-04-11,86.56547546386719,-0.005068871624946625
320,2018-04-12,86.98772430419922,0.004877797275061324
321,2018-04-13,87.0346450805664,0.0005393953772501181
322,2018-04-16,88.49851989746094,0.016819449490940608
323,2018-04-17,90.20638275146484,0.019298208105431813
324,2018-04-18,89.71839141845703,-0.005409720666355922
325,2018-04-19,88.95832061767578,-0.008471739057783534
326,2018-04-20,88.62052917480469,-0.0037971877225836392
327,2018-04-23,88.53606414794922,-0.0009531090328840364
328,2018-04-24,87.43815612792969,-0.012400687003488842
329,2018-04-25,87.40998077392578,-0.000322231795037875
330,2018-04-26,87.53199005126953,0.0013958277563212995
331,2018-04-27,87.70088958740234,0.0019295749592107558
332,2018-04-30,87.73844909667969,0.0004282682815881511
333,2018-05-01,87.7759780883789,0.00042773712193011626
334,2018-05-02,86.85635375976562,-0.010476947664283975
335,2018-05-03,85.50509643554688,-0.015557380268991783
336,2018-05-04,86.57483673095703,0.012510836663595981
337,2018-05-07,87.08158874511719,0.00585334068529586
338,2018-05-08,86.40361022949219,-0.00778555519478874
339,2018-05-09,87.5335464477539,0.013077419048354022
340,2018-05-10,88.31507873535156,0.00892837454111528
341,2018-05-11,88.78591918945312,0.005331371050605105
342,2018-05-14,87.91960906982422,-0.009757291781598343
343,2018-05-15,86.72377014160156,-0.013601504156745547
344,2018-05-16,88.07969665527344,0.015635004237684047
345,2018-05-17,87.84428405761719,-0.0026727226204877885
346,2018-05-18,88.09849548339844,0.002893886933093004
347,2018-05-21,88.52225494384766,0.004810064668233416
348,2018-05-22,88.47518157958984,-0.0005317686980259584
349,2018-05-23,88.59758758544922,0.0013835066927696538
350,2018-05-24,88.54109191894531,-0.0006376659686068153
351,2018-05-25,88.58816528320312,0.000531655565089606
352,2018-05-29,87.86312103271484,-0.00818443691852544
353,2018-05-30,88.47518157958984,0.006966068808859083
354,2018-05-31,86.93092346191406,-0.01745413900379067
355,2018-06-01,87.3546371459961,0.004874142217845767
356,2018-06-04,88.3810043334961,0.011749429921901422
357,2018-06-05,88.43751525878906,0.0006394012573078811
358,2018-06-06,88.4280776977539,-0.00010671445265664214
359,2018-06-07,87.79720306396484,-0.0071343248684584415
360,2018-06-08,88.19269561767578,0.0045046144969196344
361,2018-06-11,88.34334564208984,0.001708191629238076
362,2018-06-12,88.65409088134766,0.003517471938596861
363,2018-06-13,88.81414794921875,0.0018054109661482798
364,2018-06-14,89.32263946533203,0.0057253436288553505
365,2018-06-15,89.3791275024414,0.000632404477157289
366,2018-06-18,89.3038101196289,-0.0008426730593273923
367,2018-06-19,88.74823760986328,-0.006221151247873924
368,2018-06-20,89.115478515625,0.004138007870940541
369,2018-06-21,87.66537475585938,-0.01627218732278224
370,2018-06-22,87.22280883789062,-0.0050483548288164926
371,2018-06-25,86.79907989501953,-0.004858006162798745
372,2018-06-26,87.29813385009766,0.005749530475227527
373,2018-06-27,86.72377014160156,-0.006579335469900749
374,2018-06-28,87.29813385009766,0.006622909815362954
375,2018-06-29,87.92903137207031,0.007226930223456884
376,2018-07-02,88.12679290771484,0.0022491039939664947
377,2018-07-03,88.50341796875,0.004273672609753865
378,2018-07-05,89.02131652832031,0.005851735124548396
379,2018-07-06,88.58816528320312,-0.004865702530689853
380,2018-07-09,89.54861450195312,0.010841732817014504
381,2018-07-10,90.49967193603516,0.010620571176578997
382,2018-07-11,90.0947723388672,-0.004474044916473741
383,2018-07-12,90.15125274658205,0.0006268999437881728
384,2018-07-13,89.33206176757812,-0.009086850754106424
385,2018-07-16,87.84428405761719,-0.016654465155318987
386,2018-07-17,89.115478515625,0.01447099798973861
387,2018-07-18,89.09664916992188,-0.00021129152888765823
388,2018-07-19,90.70681762695312,0.018072155036497506
389,2018-07-20,90.18892669677734,-0.005709503912988079
390,2018-07-23,89.5862808227539,-0.006682038428615367
391,2018-07-24,89.21904754638672,-0.004099213328140672
392,2018-07-25,89.20023345947266,-0.00021087522711205064
393,2018-07-26,90.46200561523438,0.014145390733029783
394,2018-07-27,96.8932876586914,0.07109373708572697
395,2018-07-30,96.51666259765624,-0.0038870087922069363
396,2018-07-31,96.7717514038086,0.002642950960869195
397,2018-08-01,96.7717514038086,0.0
398,2018-08-02,97.29137420654295,0.005369571132034956
399,2018-08-03,98.34949493408205,0.010875791776697286
400,2018-08-06,98.45342254638672,0.00105671729554202
401,2018-08-07,97.82988739013672,-0.006333300967330202
402,2018-08-08,97.27246856689452,-0.005697837727434596
403,2018-08-09,98.1605453491211,0.009129785594120587
404,2018-08-10,96.7245101928711,-0.014629453729525954
405,2018-08-13,95.79863739013672,-0.009572266645632599
406,2018-08-14,96.34661865234376,0.005720136289365074
407,2018-08-15,95.741943359375,-0.006276040627338109
408,2018-08-16,96.05372619628906,0.0032564916271207167
409,2018-08-17,97.08352661132812,0.010721087622718839
410,2018-08-20,97.17798614501952,0.0009729718005564436
411,2018-08-21,97.584228515625,0.004180395033081208
412,2018-08-22,97.48030853271484,-0.0010649260079308442
413,2018-08-23,97.2252197265625,-0.00261682395133922
414,2018-08-24,98.0660629272461,0.008648406278210397
415,2018-08-27,98.76520538330078,0.007129300750794654
416,2018-08-28,98.15109252929688,-0.0062179069199580494
417,2018-08-29,98.91634368896484,0.007796664713024537
418,2018-08-30,98.91634368896484,0.0
419,2018-08-31,98.92579650878906,9.556378118813491e-05
420,2018-09-04,100.5035400390625,0.015948757411655246
421,2018-09-05,102.20410919189452,0.016920490085931883
422,2018-09-06,102.93158721923828,0.0071178941149800945
423,2018-09-07,101.93956756591795,-0.00963766012086631
424,2018-09-10,102.5631103515625,0.006116788608518942
425,2018-09-11,102.52532958984376,-0.0003683659903568337
426,2018-09-12,103.34725952148438,0.00801684749445597
427,2018-09-13,104.69828033447266,0.013072633171346215
428,2018-09-14,105.78475189208984,0.010377167171669921
429,2018-09-17,105.15176391601562,-0.005983735507740562
430,2018-09-18,105.4257354736328,0.0026054870352532067
431,2018-09-19,104.99113464355467,-0.0041223409836853575
432,2018-09-20,104.38650512695312,-0.005758862580676594
433,2018-09-21,104.22589111328124,-0.0015386472942700014
434,2018-09-24,104.28258514404295,0.000543953428041144
435,2018-09-25,102.75208282470705,-0.014676490012420218
436,2018-09-26,102.60091400146484,-0.0014711996008888173
437,2018-09-27,102.3552703857422,-0.002394165959565764
438,2018-09-28,101.7884292602539,-0.005537976924413046
439,2018-10-01,101.8167495727539,0.00027822722784720533
440,2018-10-02,102.17576599121094,0.003526103710475459
441,2018-10-03,102.03404235839844,-0.001387057209090936
442,2018-10-04,101.17430877685548,-0.008425948454762855
443,2018-10-05,101.2499008178711,0.0007471466020325668
444,2018-10-08,101.7222900390625,0.004665577125267051
445,2018-10-09,99.88001251220705,-0.018110853836931895
446,2018-10-10,96.76229095458984,-0.031214669273656348
447,2018-10-11,95.9592514038086,-0.00829909609269286
448,2018-10-12,96.03485107421876,0.0007878309730871003
449,2018-10-15,96.5072250366211,0.004918776434997163
450,2018-10-16,99.7666244506836,0.03377363107089315
451,2018-10-17,99.21866607666016,-0.005492401662785529
452,2018-10-18,98.51010131835938,-0.007141446124193207
453,2018-10-19,98.55734252929688,0.00047955702314039783
454,2018-10-22,98.22666931152344,-0.003355135287613331
455,2018-10-23,97.95270538330078,-0.0027890992348909016
456,2018-10-24,94.5515594482422,-0.0347223276963049
457,2018-10-25,95.69470977783205,0.012090232421979374
458,2018-10-26,94.81608581542967,-0.009181531188528713
459,2018-10-29,94.62714385986328,-0.0019927204750277427
460,2018-10-30,96.09650421142578,0.015527894974179057
461,2018-10-31,96.6558074951172,0.005820225077708185
462,2018-11-01,97.81233978271484,0.011965471269339556
463,2018-11-02,98.40008544921876,0.0060089112254093635
464,2018-11-05,96.57998657226562,-0.018496923743957838
465,2018-11-06,98.68448638916016,0.021790226853260597
466,2018-11-07,99.64192962646484,0.0097020643501049
467,2018-11-08,99.66089630126952,0.00019034832901954069
468,2018-11-09,98.8646011352539,-0.007990046202358547
469,2018-11-12,96.47570037841795,-0.02416335806147407
470,2018-11-13,97.05396270751952,0.005993865054447767
471,2018-11-14,96.76956176757812,-0.0029303382572688497
472,2018-11-15,99.33859252929688,0.026547921834027433
473,2018-11-16,100.75106048583984,0.014218723263331956
474,2018-11-19,99.7082977294922,-0.010349893602303095
475,2018-11-20,98.88356018066406,-0.008271503652240164
476,2018-11-21,98.11568450927734,-0.007765453326961325
477,2018-11-23,98.49488830566406,0.003864864198657836
478,2018-11-26,98.29581451416016,-0.0020211586096336998
479,2018-11-27,96.97811126708984,-0.01340548683159326
480,2018-11-28,98.61811065673828,0.016911026294703424
481,2018-11-29,98.44747924804688,-0.0017302238661347502
482,2018-11-30,98.63709259033205,0.0019260355240526827
483,2018-12-03,99.02574920654295,0.0039402683717078
484,2018-12-04,97.58482360839844,-0.01455101940343928
485,2018-12-06,96.3429718017578,-0.012725870281060425
486,2018-12-07,94.5797348022461,-0.01830166712253667
487,2018-12-10,93.9540786743164,-0.006615118230536954
488,2018-12-11,93.53694915771484,-0.004439716960532469
489,2018-12-12,94.73141479492188,0.012769987133031346
490,2018-12-13,95.10112762451172,0.003902747894034997
491,2018-12-14,95.12007904052734,0.00019927645958572882
492,2018-12-17,93.50852966308594,-0.016942262808200326
493,2018-12-18,92.84493255615234,-0.0070966478600889005
494,2018-12-19,90.61719512939452,-0.02399417356903666
495,2018-12-20,90.06736755371094,-0.006067585460998504
496,2018-12-21,88.68331909179688,-0.015366813747373032
497,2018-12-24,85.03358459472656,-0.041154689906141684
498,2018-12-26,86.99591064453125,0.0230770707733563
499,2018-12-27,87.56468963623047,0.006537996872327367
500,2018-12-28,87.87752532958984,0.003572623790011553
501,2018-12-31,89.17626190185547,0.014778938840103173
502,2019-01-02,85.48863983154297,-0.0413520592999399
503,2019-01-03,84.45532989501953,-0.01208710231627963
504,2019-01-04,86.33232879638672,0.022224753650247342
505,2019-01-07,87.16654968261719,0.009662902621310865
506,2019-01-08,88.65487670898438,0.01707452034967938
507,2019-01-09,88.61695861816406,-0.00042770451246332275
508,2019-01-10,89.65973663330078,0.011767251228175013
509,2019-01-11,89.80194854736328,0.001586129063083641
510,2019-01-14,89.07198333740234,-0.008128612148944003
511,2019-01-15,89.87776184082031,0.00904637432811728
512,2019-01-16,89.78297424316406,-0.0010546279270297054
513,2019-01-17,90.9394989013672,0.012881335998859544
514,2019-01-18,92.6079330444336,0.01834663884475507
515,2019-01-22,91.4229736328125,-0.012795441736644153
516,2019-01-23,92.31407165527344,0.009746981388287557
517,2019-01-24,92.07707214355467,-0.002567317284019155
518,2019-01-25,92.32354736328124,0.002676835980864878
519,2019-01-28,92.7880630493164,0.005031389058387958
520,2019-01-29,93.16857147216795,0.004100833774806967
521,2019-01-30,93.18757629394533,0.00020398318313863406
522,2019-01-31,94.29109191894533,0.011841874946067144
523,2019-02-01,94.70014190673828,0.0043381615322111156
524,2019-02-04,94.98551177978516,0.003013404914724571
525,2019-02-05,96.1460952758789,0.012218531798664722
526,2019-02-06,96.64073944091795,0.005144714027332409
527,2019-02-07,96.98320770263672,0.003543725593367686
528,2019-02-08,96.45049285888672,-0.005492856509586419
529,2019-02-11,96.74539947509766,0.003057595741293051
530,2019-02-12,97.33519744873048,0.006096392974062281
531,2019-02-13,97.79180908203124,0.0046911255667947405
532,2019-02-14,96.81198120117188,-0.010019529141110817
533,2019-02-15,96.97370147705078,0.0016704572499437464
534,2019-02-19,96.60271453857422,-0.0038256448173669133
535,2019-02-20,97.2781219482422,0.006991598661529208
536,2019-02-21,98.09622192382812,0.008409907173384745
537,2019-02-22,97.0783462524414,-0.0103762984080783
538,2019-02-25,96.61222076416016,-0.004801539233776686
539,2019-02-26,96.37439727783205,-0.0024616294341133216
540,2019-02-27,96.4695281982422,0.0009870974355969953
541,2019-02-28,96.77393341064452,0.0031554545573890813
542,2019-03-01,95.89875793457033,-0.00904350422918665
543,2019-03-04,96.6597900390625,0.007935786874438966
544,2019-03-05,96.52659606933594,-0.0013779666774853538
545,2019-03-06,95.5943374633789,-0.00965804911723378
546,2019-03-07,95.0140609741211,-0.006070197300965807
547,2019-03-08,95.57532501220705,0.005907168184704936
548,2019-03-11,97.04978942871094,0.015427249829551348
549,2019-03-12,97.2781219482422,0.00235273585728879
550,2019-03-13,97.2971420288086,0.0001955226949850175
551,2019-03-14,97.87741088867188,0.005963883910294898
552,2019-03-15,98.02963256835938,0.0015552278948269826
553,2019-03-18,98.65748596191406,0.006404730662607161
554,2019-03-19,98.55284118652344,-0.0010606876342968974
555,2019-03-20,98.88577270507812,0.003378203150171677
556,2019-03-21,100.3983154296875,0.015295857869467744
557,2019-03-22,98.77162170410156,-0.01620240059431244
558,2019-03-25,99.41849517822266,0.006549183489757748
559,2019-03-26,100.30318450927734,0.008898639327307833
560,2019-03-27,100.37928771972656,0.0007587317473671806
561,2019-03-28,101.0166473388672,0.0063495132673210275
562,2019-03-29,101.2069091796875,0.0018834701589536262
563,2019-04-01,102.4626007080078,0.01240717198556962
564,2019-04-02,101.99646759033205,-0.0045493000807593775
565,2019-04-03,102.23429107666016,0.002331683556761277
566,2019-04-04,102.8335952758789,0.005862066366453922
567,2019-04-05,103.4424285888672,0.005920568189363928
568,2019-04-08,103.68023681640624,0.0022989428108286525
569,2019-04-09,102.89068603515624,-0.007615248628801918
570,2019-04-10,103.727783203125,0.008135791491202138
571,2019-04-11,104.31761169433594,0.005686311545441081
572,2019-04-12,104.93592834472656,0.005927250828962283
573,2019-04-15,104.53639221191406,-0.0038074293439324114
574,2019-04-16,104.279541015625,-0.002457050514699022
575,2019-04-17,102.4530792236328,-0.01751505400007969
576,2019-04-18,102.93824005126952,0.004735444081458207
577,2019-04-22,103.62316131591795,0.006653710655120104
578,2019-04-23,104.69810485839844,0.010373583751255078
579,2019-04-24,104.5839614868164,-0.0010902143046085389
580,2019-04-25,104.11783599853516,-0.0044569500108294635
581,2019-04-26,105.99185180664062,0.017998989223439343
582,2019-04-29,105.896728515625,-0.0008974585252945477
583,2019-04-30,106.16395568847656,0.0025234695783082906
584,2019-05-01,107.6623077392578,0.014113566521371412
585,2019-05-02,107.84363555908205,0.0016842275038668753
586,2019-05-03,108.65483856201172,0.007522029452403434
587,2019-05-06,109.7714614868164,0.010276789690938593
588,2019-05-07,108.76936340332033,-0.0091289490904376
589,2019-05-08,108.78845977783205,0.0001755675855241723
590,2019-05-09,107.84363555908205,-0.008684967327228676
591,2019-05-10,108.41625213623048,0.005309692817567546
592,2019-05-13,107.65277862548828,-0.007042057769926058
593,2019-05-14,107.8245620727539,0.001595717727484125
594,2019-05-15,108.07268524169922,0.002301174836007114
595,2019-05-16,108.9029769897461,0.007682715999791867
596,2019-05-17,108.58805084228516,-0.0028918047620551945
597,2019-05-20,107.88182067871094,-0.0065037557824844106
598,2019-05-21,108.3017349243164,0.0038923540867561446
599,2019-05-22,107.98678588867188,-0.0029080700864545506
600,2019-05-23,107.80545043945312,-0.0016792373967468022
601,2019-05-24,107.7768325805664,-0.0002654583675506528
602,2019-05-28,107.74820709228516,-0.0002655996432243679
603,2019-05-29,107.55730438232422,-0.0017717483669814627
604,2019-05-30,108.33036041259766,0.007187387548552859
605,2019-05-31,108.101318359375,-0.0021142923585807383
606,2019-06-03,108.82665252685548,0.006709762457004942
607,2019-06-04,110.43950653076172,0.01482039524746237
608,2019-06-05,111.7852020263672,0.012184910435385277
609,2019-06-06,114.74372863769533,0.026466174034648127
610,2019-06-07,116.35660552978516,0.014056340257013078
611,2019-06-10,117.59729766845705,0.010662842328743372
612,2019-06-11,116.98648834228516,-0.005194076209930842
613,2019-06-12,116.07027435302734,-0.007831793245875573
614,2019-06-13,115.21135711669922,-0.007399975929373026
615,2019-06-14,114.610107421875,-0.005218666890758006
616,2019-06-17,114.68647003173828,0.0006662816358962154
617,2019-06-18,114.0374755859375,-0.005658857977067222
618,2019-06-19,113.96114349365234,-0.0006693597161192555
619,2019-06-20,114.34288024902344,0.003349709766578002
620,2019-06-21,113.93250274658205,-0.003589007916781961
621,2019-06-24,113.35987091064452,-0.005026062116894048
622,2019-06-25,115.5358428955078,0.019195258140144444
623,2019-06-26,113.79889678955078,-0.015033829004285182
624,2019-06-27,116.00349426269533,0.01937274908052511
625,2019-06-28,118.6661605834961,0.022953328584835786
626,2019-07-01,118.59937286376952,-0.0005628202631497992
627,2019-07-02,117.9026870727539,-0.005874278878488348
628,2019-07-03,120.174072265625,0.01926491456017021
629,2019-07-05,118.92385864257812,-0.010403355727876873
630,2019-07-08,118.33214569091795,-0.004975561324818356
631,2019-07-09,118.4084930419922,0.0006451953577657488
632,2019-07-10,117.9408721923828,-0.003949217134649019
633,2019-07-11,118.36077880859376,0.0035603146594169743
634,2019-07-12,117.77862548828124,-0.004918464766558772
635,2019-07-15,117.31097412109376,-0.003970596237209412
636,2019-07-16,117.54003143310548,0.0019525650837683983
637,2019-07-17,117.89314270019533,0.0030041787702839162
638,2019-07-18,118.68526458740234,0.006718981859881401
639,2019-07-19,117.76905822753906,-0.007719630259479859
640,2019-07-22,117.54003143310548,-0.001944711097129459
641,2019-07-23,118.82842254638672,0.010961296313881652
642,2019-07-24,117.6640853881836,-0.009798473574355593
643,2019-07-25,117.31097412109376,-0.00300101144648246
644,2019-07-26,118.80933380126952,0.012772544865487845
645,2019-07-29,119.23880004882812,0.003614751752391454
646,2019-07-30,118.50180053710938,-0.006180869913291254
647,2019-07-31,115.83143615722656,-0.022534378108850506
648,2019-08-01,112.51976776123048,-0.028590411255031922
649,2019-08-02,112.9600601196289,0.003913022281851308
650,2019-08-05,112.06036376953124,-0.007964729738501042
651,2019-08-06,114.58717346191406,0.0225486479553072
652,2019-08-07,116.44398498535156,0.016204357497784594
653,2019-08-08,117.60210418701172,0.009945719410116682
654,2019-08-09,115.88886260986328,-0.014568120094382242
655,2019-08-12,114.8743133544922,-0.008754501791829017
656,2019-08-13,116.0228500366211,0.009998202806092982
657,2019-08-14,113.9841766357422,-0.017571309446677175
658,2019-08-15,113.25676727294922,-0.006381669669094148
659,2019-08-16,115.09444427490234,0.016225758921092348
660,2019-08-19,115.06572723388672,-0.00024950849014948595
661,2019-08-20,113.7831802368164,-0.01114621206420019
662,2019-08-21,114.21388244628906,0.0037852889027731873
663,2019-08-22,115.37201690673828,0.010140049840209775
664,2019-08-23,115.1040267944336,-0.0023228345962029717
665,2019-08-26,115.80271911621094,0.006070094515677971
666,2019-08-27,116.29085540771484,0.00421524032621412
667,2019-08-28,116.63540649414062,0.0029628390402476334
668,2019-08-29,116.47271728515624,-0.0013948526770262148
669,2019-08-30,116.97998809814452,0.00435527585182327
670,2019-09-03,114.52017211914062,-0.021027664808275892
671,2019-09-04,116.71199798583984,0.01913921212429681
672,2019-09-05,116.0037078857422,-0.006068699982186732
673,2019-09-06,115.69743347167967,-0.0026402122798022676
674,2019-09-09,113.99374389648438,-0.014725387798790956
675,2019-09-10,114.0033187866211,8.399487383625726e-05
676,2019-09-11,113.54389190673828,-0.004029943029489447
677,2019-09-12,112.98878479003906,-0.004888920992378587
678,2019-09-13,113.32376861572266,0.0029647528850413885
679,2019-09-16,111.48607635498048,-0.016216300280073925
680,2019-09-17,111.99337005615234,0.004550287513541917
681,2019-09-18,113.22804260253906,0.011024514627675508
682,2019-09-19,112.7973403930664,-0.003803847523749404
683,2019-09-20,112.98878479003906,0.0016972421185244002
684,2019-09-23,113.03661346435548,0.0004233046174033639
685,2019-09-24,113.42903137207033,0.0034716000036447703
686,2019-09-25,114.0128936767578,0.00514737979884794
687,2019-09-26,113.82145690917967,-0.0016790799830137537
688,2019-09-27,113.58218383789062,-0.0021021789545354608
689,2019-09-30,113.3716049194336,-0.0018539784263840176
690,2019-10-01,112.62505340576172,-0.006584995548068684
691,2019-10-02,110.40453338623048,-0.019716039658877915
692,2019-10-03,110.0599594116211,-0.003121012915329846
693,2019-10-04,112.29964447021484,0.020349680942706838
694,2019-10-07,111.5626449584961,-0.006562794701582719
695,2019-10-08,109.85895538330078,-0.01527114721804168
696,2019-10-09,111.48607635498048,0.014810999849785844
697,2019-10-10,111.3233642578125,-0.001459483573983622
698,2019-10-11,111.34251403808594,0.00017201941749700467
699,2019-10-14,110.88308715820312,-0.0041262484851533054
700,2019-10-15,110.24182891845705,-0.005783192515474989
701,2019-10-16,110.51937866210938,0.0025176445853201113
702,2019-10-17,111.55309295654295,0.009353240191423362
703,2019-10-18,112.73033142089844,0.010553167403561714
704,2019-10-21,112.84520721435548,0.0010190318081133576
705,2019-10-22,111.65837097167967,-0.010517382811140119
706,2019-10-23,112.3379364013672,0.006086112700496749
707,2019-10-24,112.30921936035156,-0.0002556308397284601
708,2019-10-25,112.82605743408205,0.004601920275771665
709,2019-10-28,113.13232421875,0.002714504004067475
710,2019-10-29,113.77557373046876,0.005685815403871697
711,2019-10-30,114.48600769042967,0.006244169435206892
712,2019-10-31,113.4299545288086,-0.009224298959543131
713,2019-11-01,106.36397552490234,-0.06229376563940747
714,2019-11-04,104.32866668701172,-0.019135321219862722
715,2019-11-05,104.3190689086914,-9.199560029948817e-05
716,2019-11-06,105.11591339111328,0.007638531389877912
717,2019-11-07,105.02951049804688,-0.000821977284684916
718,2019-11-08,104.64550018310548,-0.003656213507236439
719,2019-11-11,104.24226379394533,-0.0038533562212860195
720,2019-11-12,103.89665985107422,-0.003315391764268094
721,2019-11-13,105.24071502685548,0.012936461843025882
722,2019-11-14,106.0567626953125,0.007754106081935941
723,2019-11-15,105.56713104248048,-0.00461669430961853
724,2019-11-18,105.93194580078124,0.0034557608480800805
725,2019-11-19,106.0855484008789,0.0014500120708302866
726,2019-11-20,106.2775650024414,0.0018100165805516877
727,2019-11-21,106.8536148071289,0.005420239019159556
728,2019-11-22,105.72074127197266,-0.010602107726548016
729,2019-11-25,106.517578125,0.007537185640587252
730,2019-11-26,108.06327056884766,0.014511148967673249
731,2019-11-27,108.32247161865234,0.002398604525295722
732,2019-11-29,107.64083099365234,-0.006292698226086468
733,2019-12-02,107.53524780273438,-0.0009808842048441013
734,2019-12-03,108.2072525024414,0.0062491574942922234
735,2019-12-04,107.31441497802734,-0.008251180062019525
736,2019-12-05,107.4776382446289,0.0015209817491432798
737,2019-12-06,107.60243225097656,0.0011611160087423578
738,2019-12-09,108.1304702758789,0.004907305660811767
739,2019-12-10,107.46802520751952,-0.006126349646582097
740,2019-12-11,108.07286071777344,0.005628050846621546
741,2019-12-12,109.61856842041016,0.014302459399804901
742,2019-12-13,109.4169464111328,-0.0018393052580663038
743,2019-12-16,109.75296783447266,0.003071018104245482
744,2019-12-17,108.82170867919922,-0.008485047590493844
745,2019-12-18,108.56248474121094,-0.0023820976635503532
746,2019-12-19,108.7353057861328,0.0015919039190548379
747,2019-12-20,110.36739349365234,0.015009731160637418
748,2019-12-23,110.760986328125,0.003566205760719532
749,2019-12-24,110.1465835571289,-0.0055471045479492664
750,2019-12-26,110.23298645019533,0.0007844355246988677
751,2019-12-27,110.4250030517578,0.00174191598854323
752,2019-12-30,111.13542938232422,0.006433564056443242
753,2019-12-31,111.00102996826172,-0.0012093300472177937
754,2020-01-02,109.13851928710938,-0.016779219811607904
755,2020-01-03,109.48413848876952,0.0031667939414765645
756,2020-01-06,109.49373626708984,8.766364199241927e-05
757,2020-01-07,108.3992919921875,-0.009995496657750791
758,2020-01-08,108.69690704345705,0.002745544235574826
759,2020-01-09,110.07937622070312,0.012718569597324203
760,2020-01-10,111.16422271728516,0.009855129396872497
761,2020-01-13,111.55785369873048,0.0035409862258148905
762,2020-01-14,111.49063873291016,-0.0006025121817226919
763,2020-01-15,112.04747772216795,0.0049944909777741575
764,2020-01-16,113.4971694946289,0.012938191933740795
765,2020-01-17,112.63311004638672,-0.007613048431864833
766,2020-01-21,111.01061248779295,-0.014405156333919589
767,2020-01-22,111.04901885986328,0.0003459702744594839
768,2020-01-23,112.68112182617188,0.014697139903308898
769,2020-01-24,112.44110107421876,-0.002130088412887643
770,2020-01-27,111.83625793457033,-0.005379199722076677
771,2020-01-28,111.68215942382812,-0.0013778940174514753
772,2020-01-29,111.65330505371094,-0.00025836149897218164
773,2020-01-30,112.2311019897461,0.005174920131179261
774,2020-01-31,111.23918914794922,-0.008838127971758647
775,2020-02-03,112.90521240234376,0.014976945329749913
776,2020-02-04,112.62593841552734,-0.00247352607443152
777,2020-02-05,113.51193237304688,0.007866695452078742
778,2020-02-06,113.18449401855467,-0.002884616160141684
779,2020-02-07,112.38517761230467,-0.007062066347347629
780,2020-02-10,111.51846313476562,-0.007711999891382049
781,2020-02-11,111.7592315673828,0.0021590006340583834
782,2020-02-12,110.46875762939452,-0.011546911336896781
783,2020-02-13,111.9036865234375,0.012989454437941195
784,2020-02-14,112.35628509521484,0.004044536742608074
785,2020-02-18,110.99842834472656,-0.012085276309532489
786,2020-02-19,110.75768280029295,-0.0021689094883932114
787,2020-02-20,110.68062591552734,-0.0006957249629766515
788,2020-02-21,107.8396987915039,-0.025667790550729874
789,2020-02-24,105.172119140625,-0.0247365272786636
790,2020-02-25,102.98605346679688,-0.020785600705688467
791,2020-02-26,100.80960845947266,-0.02113339558181937
792,2020-02-27,98.61389923095705,-0.021780753462586122
793,2020-02-28,97.33309936523438,-0.01298802578248115
794,2020-03-02,99.75028228759766,0.024834130816003386
795,2020-03-03,98.96060180664062,-0.007916573896806112
796,2020-03-04,103.46756744384766,0.045543029801023316
797,2020-03-05,100.13549041748048,-0.03220407233576361
798,2020-03-06,103.3327407836914,0.031929242598014884
799,2020-03-09,97.69903564453124,-0.054520039790228014
800,2020-03-10,100.1451187133789,0.02503692132384505
801,2020-03-11,95.41665649414062,-0.04721610279150412
802,2020-03-12,90.9097137451172,-0.047234339523311464
803,2020-03-13,92.82611083984376,0.021080223617242266
804,2020-03-16,84.63076782226562,-0.08828704492120609
805,2020-03-17,92.88389587402344,0.09751923873703161
806,2020-03-18,93.17281341552734,0.0031105235066342107
807,2020-03-19,95.22406005859376,0.02201550611033265
808,2020-03-20,89.08958435058594,-0.06442148868923603
809,2020-03-23,80.8268051147461,-0.09274686032122559
810,2020-03-24,84.8041000366211,0.04920762259783262
811,2020-03-25,86.84571838378906,0.024074524065302638
812,2020-03-26,92.64313507080078,0.06675535414874156
813,2020-03-27,90.52450561523438,-0.022868715031580944
814,2020-03-30,96.76490020751952,0.06893596987769635
815,2020-03-31,95.85965728759766,-0.009355075218188569
816,2020-04-01,92.65277099609376,-0.03345397200704159
817,2020-04-02,92.5949935913086,-0.0006235906834087812
818,2020-04-03,90.70746612548828,-0.020384768037798984
819,2020-04-06,97.03455352783205,0.06975266394930069
820,2020-04-07,97.38124084472656,0.0035728233324130443
821,2020-04-08,100.26068878173828,0.029568815431331164
822,2020-04-09,103.30384063720705,0.03035239327044259
823,2020-04-13,98.56575775146484,-0.04586550564351122
824,2020-04-14,100.17401123046876,0.01631655369666163
825,2020-04-15,97.19827270507812,-0.029705694010239925
826,2020-04-16,98.0842514038086,0.009115169169916504
827,2020-04-17,99.13394927978516,0.010702002217002127
828,2020-04-20,102.98605346679688,0.03885756811866692
829,2020-04-21,102.19637298583984,-0.007667839036201385
830,2020-04-22,102.36972045898438,0.0016962194261880281
831,2020-04-23,101.13703155517578,-0.012041538242770544
832,2020-04-24,100.27033233642578,-0.008569553658267726
833,2020-04-27,108.41751861572266,0.08125221179043796
834,2020-04-28,107.41278076171876,-0.00926730169471146
835,2020-04-29,106.35003662109376,-0.009894019436872736
836,2020-04-30,103.45169830322266,-0.027252819180470733
837,2020-05-01,102.54353332519533,-0.008778637692012037
838,2020-05-04,103.19083404541016,0.006312447984038627
839,2020-05-05,101.98318481445312,-0.011703066867601808
840,2020-05-06,101.3069076538086,-0.0066312614366274
841,2020-05-07,101.89624786376952,0.005817374388475516
842,2020-05-08,103.88644409179688,0.019531594830539456
843,2020-05-11,102.7077865600586,-0.011345633610259975
844,2020-05-12,100.427734375,-0.022199409231016043
845,2020-05-13,98.94957733154295,-0.014718613863552554
846,2020-05-14,98.98822784423828,0.0003906081636491088
847,2020-05-15,98.06075286865234,-0.009369548236032199
848,2020-05-18,100.62096405029295,0.0261084185746554
849,2020-05-19,100.2152099609375,-0.004032500515028348
850,2020-05-20,100.87215423583984,0.006555335015098196
851,2020-05-21,101.52910614013672,0.006512718096224113
852,2020-05-22,101.5387725830078,9.520858834055623e-05
853,2020-05-26,105.83799743652344,0.04234072112700615
854,2020-05-27,108.73633575439452,0.027384667020078135
855,2020-05-28,107.81852722167967,-0.008440679248084337
856,2020-05-29,107.6156234741211,-0.001881900567435868
857,2020-06-01,107.64462280273438,0.00026947136184407583
858,2020-06-02,108.27259826660156,0.005833783866919129
859,2020-06-03,109.4416046142578,0.010796880894811123
860,2020-06-04,108.3402328491211,-0.010063556441982424
861,2020-06-05,109.55753326416016,0.011235903625334887
862,2020-06-08,109.73143768310548,0.001587334195687129
863,2020-06-09,108.65904998779295,-0.00977283919681693
864,2020-06-10,107.857177734375,-0.00737970977574387
865,2020-06-11,100.7175750732422,-0.06619497015503073
866,2020-06-12,101.78996276855467,0.010647473338517344
867,2020-06-15,101.83828735351562,0.00047474803651148534
868,2020-06-16,103.75119018554688,0.01878372939826556
869,2020-06-17,103.2874526977539,-0.004469707643484644
870,2020-06-18,103.36473083496094,0.0007481851395170214
871,2020-06-19,103.95406341552734,0.005701486143347756
872,2020-06-22,103.90575408935548,-0.00046471801663738876
873,2020-06-23,103.79949188232422,-0.0010226787530926984
874,2020-06-24,102.3503189086914,-0.013961272327572827
875,2020-06-25,103.95406341552734,0.015669169612130496
876,2020-06-26,104.06999969482422,0.001115264526346138
877,2020-06-29,105.54815673828124,0.014203488496123517
878,2020-06-30,108.18565368652344,0.024988564743789743
879,2020-07-01,108.66871643066406,0.004465127562480076
880,2020-07-02,111.0743408203125,0.02213723018605207
881,2020-07-06,111.35449981689452,0.002522265669217205
882,2020-07-07,111.24823760986328,-0.0009542695374319399
883,2020-07-08,109.10346221923828,-0.019279185330975945
884,2020-07-09,109.90534973144533,0.007349789785732863
885,2020-07-10,111.05501556396484,0.01046050838588597
886,2020-07-13,109.58651733398438,-0.013223159913337335
887,2020-07-14,112.36892700195312,0.025390072936517072
888,2020-07-15,113.90505981445312,0.013670441228590624
889,2020-07-16,113.26741027832033,-0.005598079112302035
890,2020-07-17,115.35423278808594,0.018423856470611177
891,2020-07-20,115.24795532226562,-0.0009213139670006809
892,2020-07-21,114.17557525634766,-0.009304981272069357
893,2020-07-22,114.48471069335938,0.002707544379064064
894,2020-07-23,114.4267578125,-0.0005062062917257082
895,2020-07-24,114.82284545898438,0.0034614949689775187
896,2020-07-27,115.78899383544922,0.008414252169094416
897,2020-07-28,114.39359283447266,-0.012051240405107966
898,2020-07-29,115.13004302978516,0.006437862270644246
899,2020-07-30,114.25791931152344,-0.007575118494797195
900,2020-07-31,111.63186645507812,-0.022983552232256232
901,2020-08-03,114.98470306396484,0.03003476261176674
902,2020-08-04,114.94593048095705,-0.00033719774869733765
903,2020-08-05,114.6939926147461,-0.0021917945694709395
904,2020-08-06,114.01566314697266,-0.00591425455081962
905,2020-08-07,115.5564193725586,0.01351354877969535
906,2020-08-10,113.37611389160156,-0.01886788715672849
907,2020-08-11,113.12416076660156,-0.0022222769536879294
908,2020-08-12,114.43234252929688,0.011564123471327736
909,2020-08-13,114.84903717041016,0.0036414061960376998
910,2020-08-14,114.81995391845705,-0.0002532302635672723
911,2020-08-17,114.58738708496094,-0.0020254914373268873
912,2020-08-18,114.22885131835938,-0.0031289287217599604
913,2020-08-19,114.04474639892578,-0.0016117199578632446
914,2020-08-20,113.90908813476562,-0.001189517872972612
915,2020-08-21,114.15133666992188,0.002126683121803641
916,2020-08-24,115.4207534790039,0.011120472577142548
917,2020-08-25,114.47110748291016,-0.008227688413648293
918,2020-08-26,114.9265594482422,0.003978750405643217
919,2020-08-27,116.3316421508789,0.012225918093976329
920,2020-08-28,114.47110748291016,-0.01599336718341593
921,2020-08-31,114.72305297851562,0.002200952722005267
922,2020-09-01,115.79866790771484,0.009375752311966856
923,2020-09-02,118.4731903076172,0.02309631404424972
924,2020-09-03,115.4789047241211,-0.02527395080457784
925,2020-09-04,115.04283142089844,-0.0037762161345783474
926,2020-09-08,112.46522521972656,-0.022405622056896224
927,2020-09-09,114.23854064941406,0.015767677753038
928,2020-09-10,113.56023406982422,-0.005937633444316304
929,2020-09-11,114.6939926147461,0.009983763719831451
930,2020-09-14,115.39167785644533,0.006083014687985777
931,2020-09-15,114.6649169921875,-0.006298208655584059
932,2020-09-16,114.12226104736328,-0.004732536847876445
933,2020-09-17,112.36831665039062,-0.015368994452753859
934,2020-09-18,111.47681427001952,-0.007933752208327705
935,2020-09-21,109.93606567382812,-0.013821247102194567
936,2020-09-22,110.78880310058594,0.007756666763824471
937,2020-09-23,108.66664123535156,-0.01915502113790013
938,2020-09-24,108.78292083740234,0.0010700579380100717
939,2020-09-25,108.6278839111328,-0.0014251954725620353
940,2020-09-28,108.87982177734376,0.0023192743625299883
941,2020-09-29,109.13178253173828,0.002314117990657394
942,2020-09-30,109.69380950927734,0.005149984399600571
943,2020-10-01,110.17831420898438,0.004416882792880328
944,2020-10-02,109.3546371459961,-0.007475854653447911
945,2020-10-05,111.0019989013672,0.015064397801181073
946,2020-10-06,111.0116729736328,8.715223474653477e-05
947,2020-10-07,111.41867065429688,0.0036662602207675477
948,2020-10-08,112.91096496582033,0.013393574907688999
949,2020-10-09,113.19198608398438,0.0024888735850332466
950,2020-10-12,114.38390350341795,0.01053005129311213
951,2020-10-13,113.91876220703124,-0.004066492593276627
952,2020-10-14,112.83346557617188,-0.00952693489494727
953,2020-10-15,112.7365493774414,-0.0008589313306612834
954,2020-10-16,112.74624633789062,8.601434497301774e-05
955,2020-10-19,111.58341217041016,-0.010313728441083136
956,2020-10-20,113.33734130859376,0.01571854726493771
957,2020-10-21,114.09320068359376,0.006669111576756981
958,2020-10-22,114.64552307128906,0.00484097548658502
959,2020-10-23,114.68429565429688,0.0003381953518037939
960,2020-10-26,113.82186126708984,-0.007520073976011066
961,2020-10-27,112.4124526977539,-0.012382582340914938
962,2020-10-28,109.1951141357422,-0.028620837681233025
963,2020-10-29,109.7783203125,0.005340954871229986
964,2020-10-30,110.89612579345705,0.010182388269150522
965,2020-11-02,114.88135528564452,0.03593659799811144
966,2020-11-03,116.21299743652344,0.011591455789913718
967,2020-11-04,115.71727752685548,-0.004265615039649284
968,2020-11-05,119.46920776367188,0.032423250157658234
969,2020-11-06,120.139892578125,0.005613871783429314
970,2020-11-09,119.72193908691406,-0.0034788901691347185
971,2020-11-10,124.03765106201172,0.03604779548353787
972,2020-11-11,121.76314544677734,-0.018337219350415213
973,2020-11-12,120.79113006591795,-0.00798283731331706
974,2020-11-13,121.56874084472656,0.0064376480159118454
975,2020-11-16,123.30863189697266,0.014311993693085778
976,2020-11-17,123.79462432861328,0.003941268540280873
977,2020-11-18,122.83235168457033,-0.007773137559580978
978,2020-11-19,123.66828155517578,0.006805453605187806
979,2020-11-20,124.2320327758789,0.004558575680148058
980,2020-11-23,123.30863189697266,-0.007432872651871647
981,2020-11-24,124.30007934570312,0.00804037343921582
982,2020-11-25,122.75460052490234,-0.012433449994046275
983,2020-11-27,123.6780014038086,0.007522332156658651
984,2020-11-30,122.78374481201172,-0.007230522660833794
985,2020-12-01,124.24176025390624,0.011874661781384965
986,2020-12-02,122.72542572021484,-0.012204709033359906
987,2020-12-03,122.34635162353516,-0.0030887983843208566
988,2020-12-04,124.10568237304688,0.014379920007138836
989,2020-12-07,125.0290985107422,0.007440562914110993
990,2020-12-08,125.57340240478516,0.004353417728563347
991,2020-12-09,125.90389251708984,0.0026318480345013384
992,2020-12-10,126.8175811767578,0.007257032657222551
993,2020-12-11,126.7981414794922,-0.00015328866143959896
994,2020-12-14,124.81526184082033,-0.015638081248947833
995,2020-12-15,126.61344146728516,0.01440672879217364
996,2020-12-16,127.429931640625,0.0064486847832092575
997,2020-12-17,129.412841796875,0.015560788040302587
998,2020-12-18,130.34596252441406,0.007210418337027846
999,2020-12-21,131.1138458251953,0.0058911168854764995
1000,2020-12-22,130.73475646972656,-0.0028912991841774094
1001,2020-12-23,130.763916015625,0.00022304356305724582
1002,2020-12-24,131.9011688232422,0.00869699258227552
1003,2020-12-28,131.8817138671875,-0.00014749646442302478
1004,2020-12-29,131.5220947265625,-0.002726830961471749
1005,2020-12-30,132.57183837890625,0.007981500405131126
1006,2020-12-31,133.05784606933594,0.0036659949531712144
1007,2021-01-04,130.24876403808594,-0.021111735340929805
1008,2021-01-05,129.95712280273438,-0.0022391094265300504
1009,2021-01-06,133.86460876464844,0.03006750132384317
1010,2021-01-07,135.7891845703125,0.014377032312160365
1011,2021-01-08,135.1768341064453,-0.004509567281112181
1012,2021-01-11,134.90464782714844,-0.0020135571386628026
1013,2021-01-12,134.2825927734375,-0.004611072070014766
1014,2021-01-13,134.70053100585938,0.0031123783343014466
1015,2021-01-14,135.54620361328125,0.006278168327228606
1016,2021-01-15,134.9435577392578,-0.004446054983161418
1017,2021-01-19,133.41748046875,-0.01130900426870729
1018,2021-01-20,136.6834259033203,0.024479141886773137
1019,2021-01-21,134.24371337890625,-0.017849366214596762
1020,2021-01-22,134.3214569091797,0.0005791223165438897
1021,2021-01-25,135.66285705566406,0.00998649193770551
1022,2021-01-26,135.31202697753906,-0.0025860437096725253
1023,2021-01-27,129.85470581054688,-0.040331382870334664
1024,2021-01-28,131.8037567138672,0.0150094745596967
1025,2021-01-29,129.58184814453125,-0.01685770288140931
1026,2021-02-01,130.67327880859375,0.008422712592007109
1027,2021-02-02,133.45069885253906,0.02125469008865677
1028,2021-02-03,133.08038330078125,-0.0027749240351825355
1029,2021-02-04,134.48365783691406,0.01054456337836962
1030,2021-02-05,137.0758819580078,0.019275383810851476
1031,2021-02-08,138.3622589111328,0.00938441492952835
1032,2021-02-09,138.54737854003906,0.001337934422024345
1033,2021-02-10,139.59988403320312,0.007596718929329338
1034,2021-02-11,139.32701110839844,-0.00195467873554811
1035,2021-02-12,140.94471740722656,0.011610859128884377
1036,2021-02-16,139.94097900390625,-0.007121504244960386
1037,2021-02-17,139.5609130859375,-0.002715901522727937
1038,2021-02-18,137.3974609375,-0.015501848623656556
1039,2021-02-19,128.87042236328125,-0.06206110735989201
1040,2021-02-22,125.8104476928711,-0.023744584787533274
1041,2021-02-23,125.01133728027344,-0.006351701526000841
1042,2021-02-24,125.47908782958984,0.003741665032090058
1043,2021-02-25,126.97987365722656,0.011960445788981922
1044,2021-02-26,126.75574493408205,-0.0017650728157876383
1045,2021-03-01,127.27222442626952,0.004074604211872668
1046,2021-03-02,127.0285873413086,-0.001914298945109305
1047,2021-03-03,127.71075439453124,0.005370185306318165
1048,2021-03-04,127.07731628417967,-0.004959943376379283
1049,2021-03-05,130.67327880859375,0.028297438359278226
1050,2021-03-08,134.2010498046875,0.026996881292472352
1051,2021-03-09,134.1815643310547,-0.00014519613416719146
1052,2021-03-10,135.82850646972656,0.012273982248474313
1053,2021-03-11,135.82850646972656,0.0
1054,2021-03-12,137.18309020996094,0.009972750017215981
1055,2021-03-15,138.5084228515625,0.009661049620424134
1056,2021-03-16,136.91995239257812,-0.011468403338089517
1057,2021-03-17,137.68006896972656,0.005551539887839185
1058,2021-03-18,137.90423583984375,0.0016281722677411459
1059,2021-03-19,135.76026916503906,-0.015546778978526854
1060,2021-03-22,137.98219299316406,0.016366524917712733
1061,2021-03-23,137.18309020996094,-0.005791347172186989
1062,2021-03-24,138.22579956054688,0.007600859180166175
1063,2021-03-25,138.83978271484375,0.004441885351713415
1064,2021-03-26,141.12989807128906,0.016494662492730017
1065,2021-03-29,141.08116149902344,-0.00034533130776448484
1066,2021-03-30,139.43423461914062,-0.011673612992576743
1067,2021-03-31,138.0601348876953,-0.009854823208938712
1068,2021-04-01,140.20407104492188,0.015529002336341025
1069,2021-04-05,141.00318908691406,0.0056996778769438095
1070,2021-04-06,142.25059509277344,0.008846651015038232
1071,2021-04-07,139.9312286376953,-0.016304792634192267
1072,2021-04-08,140.01893615722656,0.0006267901767542661
1073,2021-04-09,141.5001983642578,0.010579013436925022
1074,2021-04-12,142.48448181152344,0.006956057013657535
1075,2021-04-13,142.60140991210938,0.0008206374413504136
1076,2021-04-14,142.09466552734375,-0.0035535720514822122
1077,2021-04-15,143.44924926757812,0.00953296687956029
1078,2021-04-16,144.3068084716797,0.005978136577779791
1079,2021-04-19,145.89529418945312,0.011007697658875104
1080,2021-04-20,146.58718872070312,0.004742404716299831
1081,2021-04-21,148.06846618652344,0.010105094986456287
1082,2021-04-22,146.24612426757812,-0.012307427542672666
1083,2021-04-23,147.5909423828125,0.009195581229720862
1084,2021-04-26,147.074462890625,-0.003499398295377043
1085,2021-04-27,148.14913940429688,0.007307023208176444
1086,2021-04-28,147.64109802246094,-0.003429256382310175
1087,2021-04-29,147.44570922851562,-0.0013234038256447755
1088,2021-04-30,147.33822631835938,-0.0007289660086999827
1089,2021-05-03,148.95025634765625,0.010941016934829184
1090,2021-05-04,151.45132446289062,0.01679129782359534
1091,2021-05-05,150.6306610107422,-0.005418661441613959
1092,2021-05-06,152.91677856445312,0.015176973521665138
1093,2021-05-07,153.93284606933594,0.006644578275983859
1094,2021-05-10,151.90072631835938,-0.013201339433828396
1095,2021-05-11,150.4450225830078,-0.009583257240657561
1096,2021-05-12,148.1198272705078,-0.015455448592306076
1097,2021-05-13,151.06051635742188,0.01985344663914268
1098,2021-05-14,150.00540161132812,-0.006984715606275671
1099,2021-05-17,149.58526611328125,-0.002800802461337182
1100,2021-05-18,147.44570922851562,-0.014303259541252777
1101,2021-05-19,146.09744262695312,-0.009144156236333134
1102,2021-05-20,146.29287719726562,0.0013377001458645399
1103,2021-05-21,146.18540954589844,-0.0007346061778679136
1104,2021-05-24,145.82391357421875,-0.0024728594515869284
1105,2021-05-25,144.32913208007812,-0.010250592358295507
1106,2021-05-26,144.4561309814453,0.0008799256223388507
1107,2021-05-27,143.39122009277344,-0.007371863564646142
1108,2021-05-28,143.91879272460938,0.003679253384514025
1109,2021-06-01,143.49871826171875,-0.0029188298132436508
1110,2021-06-02,142.30677795410156,-0.00830627842572973
1111,2021-06-03,142.0527801513672,-0.0017848608926855913
1112,2021-06-04,142.20907592773438,0.0011002655224392477
1113,2021-06-07,139.23907470703125,-0.02088475156263847
1114,2021-06-08,139.4930877685547,0.0018242943804236411
1115,2021-06-09,138.89710998535156,-0.004272453873785942
1116,2021-06-10,141.65223693847656,0.01983573994747312
1117,2021-06-11,142.472900390625,0.005793508594607477
1118,2021-06-14,140.18675231933594,-0.016046195908281602
1119,2021-06-15,141.0074005126953,0.005853963942969331
1120,2021-06-16,139.33677673339844,-0.011847773756714752
1121,2021-06-17,138.2523193359375,-0.007782994718873781
1122,2021-06-18,136.8748016357422,-0.009963794508561552
1123,2021-06-21,138.32069396972656,0.010563612269789857
1124,2021-06-22,138.36956787109375,0.0003533375951532136
1125,2021-06-23,136.94317626953125,-0.01030856440117911
1126,2021-06-24,136.95294189453125,7.131151230765909e-05
1127,2021-06-25,137.6759033203125,0.0052789039489054
1128,2021-06-28,137.47073364257812,-0.0014902366556988067
1129,2021-06-29,137.05064392089844,-0.0030558484016817156
1130,2021-06-30,137.5977325439453,0.003991871963495708
1131,2021-07-01,137.8712921142578,0.0019881110339163843
1132,2021-07-02,137.17764282226562,-0.005031136514027423
1133,2021-07-06,136.825927734375,-0.002563938850781433
1134,2021-07-07,137.77362060546875,0.0069262667301883685
1135,2021-07-08,136.0638885498047,-0.01240972000409346
1136,2021-07-09,137.92991638183594,0.013714350309400603
1137,2021-07-12,137.1874237060547,-0.005383115536195859
1138,2021-07-13,135.31161499023438,-0.013673328539498764
1139,2021-07-14,135.2530059814453,-0.00043314100414282297
1140,2021-07-15,135.3702392578125,0.0008667702097746588
1141,2021-07-16,135.83917236328125,0.003464078279241667
1142,2021-07-19,133.97315979003906,-0.013736925371216291
1143,2021-07-20,133.86569213867188,-0.0008021580705838138
1144,2021-07-21,132.9277801513672,-0.007006365651425428
1145,2021-07-22,131.5697784423828,-0.010216086565486893
1146,2021-07-23,133.10365295410156,0.011658258681270572
1147,2021-07-26,133.57260131835938,0.003523181774879758
1148,2021-07-27,133.61166381835938,0.0002924439564286896
1149,2021-07-28,134.48118591308594,0.006507830752775057
1150,2021-07-29,135.8489532470703,0.010170696552812553
1151,2021-07-30,125.95214080810548,-0.07285159143600739
1152,2021-08-02,126.91936492919922,0.007679298778790589
1153,2021-08-03,126.03751373291016,-0.006948121721070621
1154,2021-08-04,124.21499633789062,-0.014460118587246051
1155,2021-08-05,124.9302749633789,0.005758391873575297
1156,2021-08-06,125.8415298461914,0.007294107717922049
1157,2021-08-09,127.45826721191406,0.012847407113523612
1158,2021-08-10,126.59600830078124,-0.006765029291503133
1159,2021-08-11,128.97705078125,0.018808195553935647
1160,2021-08-12,130.00587463378906,0.007976797781521494
1161,2021-08-13,130.36842346191406,0.00278871111898793
1162,2021-08-16,130.20184326171875,-0.0012777649354943632
1163,2021-08-17,130.3292236328125,0.0009783300136365636
1164,2021-08-18,129.38856506347656,-0.00721755676214364
